
/begin_header
/missing=-999
/delimiter=space
!
!Total and Spectral Solar Irradiance Sensor-1 (TSIS-1) Hybrid Solar Reference Spectrum (HSRS)
!
!Source: https://lasp.colorado.edu/lisird/data/tsis1_hsrs
!
!Reference: Coddington, O. M., Richard, E. C., Harber, D., Pilewskie, P., Woods, T. N., Chance, K., et al. (2021). The 
!TSIS-1 hybrid solar reference spectrum. Geophysical Research Letters, 48, e2020GL091709. https://doi.org/10.1029/2020GL091709
!
/fields=wavelength,irradiance
/units=nm,mW/cm^2/um
/end_header
202.00 0.793421
203.00 0.825275
204.00 0.934870
205.00 1.01604
206.00 1.02340
207.00 1.12075
208.00 1.29505
209.00 1.70961
210.00 2.34726
211.00 2.85841
212.00 3.38019
213.00 2.98988
214.00 3.63487
215.00 3.80811
216.00 3.29880
217.00 3.10206
218.00 4.07636
219.00 4.29708
220.00 4.78458
221.00 3.93478
222.00 4.26638
223.00 5.40437
224.00 6.02168
225.00 5.48045
226.00 4.48752
227.00 3.39076
228.00 4.67579
229.00 4.84640
230.00 4.52458
231.00 5.06138
232.00 4.98640
233.00 4.71771
234.00 3.93797
235.00 4.31525
236.00 4.83372
237.00 4.74957
238.00 4.24244
239.00 4.31743
240.00 3.96990
241.00 3.84252
242.00 5.99181
243.00 6.58758
244.00 6.19358
245.00 5.25918
246.00 4.72799
247.00 5.15814
248.00 4.92592
249.00 4.20750
250.00 5.94584
251.00 5.33512
252.00 3.97410
253.00 4.31610
254.00 5.30123
255.00 6.44646
256.00 8.43130
257.00 11.5722
258.00 12.7701
259.00 11.6126
260.00 8.55706
261.00 7.95589
262.00 9.96652
263.00 10.3695
264.00 22.8674
265.00 23.1127
266.00 25.6358
267.00 24.3207
268.00 24.6272
269.00 23.7151
270.00 25.6405
271.00 25.7078
272.00 18.8436
273.00 21.9706
274.00 14.9274
275.00 14.1550
276.00 21.7652
277.00 25.1731
278.00 19.2394
279.00 12.0601
280.00 7.51158
281.00 14.4193
282.00 26.0084
283.00 31.4334
284.00 29.5889
285.00 15.7866
286.00 24.7291
287.00 35.0950
288.00 29.3162
289.00 39.3753
290.00 56.3198
291.00 59.8267
292.00 55.3323
293.00 53.0420
294.00 51.2506
295.00 51.5982
296.00 56.4975
297.00 45.5734
298.00 51.9905
299.00 48.0941
300.00 43.4808
301.00 45.2318
302.00 42.6106
303.00 60.8616
304.00 60.2198
305.00 63.8780
306.00 55.4159
307.00 61.0367
308.00 64.1679
309.00 57.4133
310.00 51.2798
311.00 77.0407
312.00 67.8540
313.00 68.8222
314.00 72.2683
315.00 67.9628
316.00 57.6365
317.00 76.3082
318.00 69.5022
319.00 69.5685
320.00 78.2351
321.00 74.6949
322.00 73.1419
323.00 64.2728
324.00 73.1384
325.00 79.9047
326.00 98.6086
327.00 98.4251
328.00 94.0803
329.00 97.6951
330.00 110.054
331.00 97.2937
332.00 97.5450
333.00 95.1329
334.00 93.0133
335.00 98.7311
336.00 86.2226
337.00 81.2738
338.00 91.0544
339.00 95.5541
340.00 105.054
341.00 95.9361
342.00 98.5431
343.00 102.918
344.00 83.0821
345.00 91.1420
346.00 91.9915
347.00 96.9370
348.00 90.5678
349.00 89.8331
350.00 100.047
351.00 103.522
352.00 98.2484
353.00 95.9963
354.00 112.054
355.00 113.146
356.00 104.277
357.00 84.0502
358.00 78.0920
359.00 83.6656
360.00 112.709
361.00 91.4983
362.00 93.4391
363.00 106.542
364.00 107.328
365.00 104.606
366.00 129.043
367.00 123.621
368.00 115.486
369.00 117.561
370.00 128.276
371.00 114.724
372.00 110.902
373.00 105.715
374.00 92.9400
375.00 92.5914
376.00 111.405
377.00 116.017
378.00 140.984
379.00 120.927
380.00 110.599
381.00 126.761
382.00 94.9150
383.00 72.8965
384.00 78.6718
385.00 108.917
386.00 97.0494
387.00 102.820
388.00 100.816
389.00 104.797
390.00 125.177
391.00 132.526
392.00 125.536
393.00 72.2749
394.00 75.4598
395.00 125.905
396.00 117.748
397.00 66.4623
398.00 133.843
399.00 161.448
400.00 167.061
401.00 170.267
402.00 178.300
403.00 172.018
404.00 175.055
405.00 168.229
406.00 164.383
407.00 164.587
408.00 169.426
409.00 185.455
410.00 158.609
411.00 174.641
412.00 186.879
413.00 178.052
414.00 182.671
415.00 178.174
416.00 181.352
417.00 179.489
418.00 172.561
419.00 175.294
420.00 169.471
421.00 185.861
422.00 180.713
423.00 165.674
424.00 174.204
425.00 172.033
426.00 170.430
427.00 165.821
428.00 167.713
429.00 158.551
430.00 133.185
431.00 124.661
432.00 179.758
433.00 174.594
434.00 159.198
435.00 176.730
436.00 187.014
437.00 188.180
438.00 173.181
439.00 169.042
440.00 182.134
441.00 184.546
442.00 196.385
443.00 197.173
444.00 197.090
445.00 199.970
446.00 183.925
447.00 198.296
448.00 204.276
449.00 203.290
450.00 208.708
451.00 217.995
452.00 209.993
453.00 192.355
454.00 204.609
455.00 201.224
456.00 209.585
457.00 211.306
458.00 207.645
459.00 204.915
460.00 203.548
461.00 210.905
462.00 211.405
463.00 212.414
464.00 206.634
465.00 201.957
466.00 208.380
467.00 197.493
468.00 204.607
469.00 206.904
470.00 201.020
471.00 198.527
472.00 211.268
473.00 204.179
474.00 206.647
475.00 211.172
476.00 205.825
477.00 205.877
478.00 214.211
479.00 207.532
480.00 211.442
481.00 208.948
482.00 212.769
483.00 207.479
484.00 203.868
485.00 201.056
486.00 166.956
487.00 179.348
488.00 196.471
489.00 191.988
490.00 208.156
491.00 202.390
492.00 190.060
493.00 201.436
494.00 198.128
495.00 207.489
496.00 199.412
497.00 203.681
498.00 197.511
499.00 196.450
500.00 196.575
501.00 188.784
502.00 187.552
503.00 197.003
504.00 190.435
505.00 196.939
506.00 205.146
507.00 198.341
508.00 191.909
509.00 200.528
510.00 195.170
511.00 196.057
512.00 200.442
513.00 190.639
514.00 187.231
515.00 189.185
516.00 191.092
517.00 159.980
518.00 176.209
519.00 176.626
520.00 188.909
521.00 187.250
522.00 192.294
523.00 183.430
524.00 195.506
525.00 194.948
526.00 191.084
527.00 170.359
528.00 188.361
529.00 198.744
530.00 192.327
531.00 200.705
532.00 195.097
533.00 182.811
534.00 191.531
535.00 193.325
536.00 199.259
537.00 186.057
538.00 193.832
539.00 191.747
540.00 184.857
541.00 182.749
542.00 190.798
543.00 187.883
544.00 192.359
545.00 190.711
546.00 191.203
547.00 191.077
548.00 185.557
549.00 191.196
550.00 190.631
551.00 188.483
552.00 191.639
553.00 186.741
554.00 190.633
555.00 192.586
556.00 189.775
557.00 184.647
558.00 186.840
559.00 178.607
560.00 181.513
561.00 189.408
562.00 183.032
563.00 187.330
564.00 185.257
565.00 186.779
566.00 180.192
567.00 186.389
568.00 186.866
569.00 183.345
570.00 185.258
571.00 177.593
572.00 186.696
573.00 189.359
574.00 189.173
575.00 185.812
576.00 184.098
577.00 187.181
578.00 183.217
579.00 181.675
580.00 184.933
581.00 184.163
582.00 185.449
583.00 186.602
584.00 185.938
585.00 183.880
586.00 178.432
587.00 183.612
588.00 183.704
589.00 167.667
590.00 171.023
591.00 181.536
592.00 181.561
593.00 180.451
594.00 181.513
595.00 179.440
596.00 180.274
597.00 181.573
598.00 178.420
599.00 177.594
600.00 177.939
601.00 175.188
602.00 173.197
603.00 176.423
604.00 178.711
605.00 178.164
606.00 176.495
607.00 176.754
608.00 174.806
609.00 173.384
610.00 172.121
611.00 172.373
612.00 171.735
613.00 170.955
614.00 166.737
615.00 170.649
616.00 165.270
617.00 163.931
618.00 169.824
619.00 168.936
620.00 170.718
621.00 171.462
622.00 167.684
623.00 166.936
624.00 166.297
625.00 163.940
626.00 163.811
627.00 168.192
628.00 168.073
629.00 168.317
630.00 164.867
631.00 165.872
632.00 161.730
633.00 165.715
634.00 162.404
635.00 164.899
636.00 162.396
637.00 164.108
638.00 165.147
639.00 164.444
640.00 160.408
641.00 159.769
642.00 159.780
643.00 161.714
644.00 160.495
645.00 160.435
646.00 159.123
647.00 159.777
648.00 160.783
649.00 158.940
650.00 153.016
651.00 160.746
652.00 158.933
653.00 158.871
654.00 158.862
655.00 155.077
656.00 135.649
657.00 137.644
658.00 153.971
659.00 154.666
660.00 154.678
661.00 155.601
662.00 157.166
663.00 155.415
664.00 154.014
665.00 155.572
666.00 155.181
667.00 154.157
668.00 153.447
669.00 155.262
670.00 153.380
671.00 152.727
672.00 150.482
673.00 152.530
674.00 152.260
675.00 151.014
676.00 151.903
677.00 150.779
678.00 151.516
679.00 150.616
680.00 150.183
681.00 149.650
682.00 149.926
683.00 149.356
684.00 146.606
685.00 147.533
686.00 146.447
687.00 148.451
688.00 147.297
689.00 147.890
690.00 147.596
691.00 146.754
692.00 145.161
693.00 145.607
694.00 146.055
695.00 144.595
696.00 145.252
697.00 144.848
698.00 141.225
699.00 144.080
700.00 142.516
701.00 140.601
702.00 139.508
703.00 140.606
704.00 140.860
705.00 142.493
706.00 141.005
707.00 140.468
708.00 141.223
709.00 138.718
710.00 140.045
711.00 139.471
712.00 138.022
713.00 137.453
714.00 138.454
715.00 136.205
716.00 137.302
717.00 136.274
718.00 135.978
719.00 133.405
720.00 134.676
721.00 133.465
722.00 134.141
723.00 134.455
724.00 134.809
725.00 134.394
726.00 134.023
727.00 134.253
728.00 133.221
729.00 129.538
730.00 132.537
731.00 131.652
732.00 132.363
733.00 130.914
734.00 132.779
735.00 131.462
736.00 130.123
737.00 130.805
738.00 130.462
739.00 126.405
740.00 128.662
741.00 126.460
742.00 125.950
743.00 128.357
744.00 128.437
745.00 126.971
746.00 128.295
747.00 128.333
748.00 127.792
749.00 127.054
750.00 125.968
751.00 125.186
752.00 126.174
753.00 125.287
754.00 126.567
755.00 125.673
756.00 124.695
757.00 124.521
758.00 124.614
759.00 123.334
760.00 124.902
761.00 124.226
762.00 121.905
763.00 124.233
764.00 124.154
765.00 123.519
766.00 118.303
767.00 119.465
768.00 122.234
769.00 121.077
770.00 120.059
771.00 120.550
772.00 119.364
773.00 120.020
774.00 120.394
775.00 117.612
776.00 120.160
777.00 119.819
778.00 117.997
779.00 118.856
780.00 118.087
781.00 118.027
782.00 119.087
783.00 117.846
784.00 116.831
785.00 117.540
786.00 117.613
787.00 117.485
788.00 116.791
789.00 116.993
790.00 116.513
791.00 115.852
792.00 114.275
793.00 113.552
794.00 111.494
795.00 112.171
796.00 114.453
797.00 114.473
798.00 114.365
799.00 113.928
800.00 111.743
801.00 113.171
802.00 113.296
803.00 111.562
804.00 112.446
805.00 109.756
806.00 111.797
807.00 111.396
808.00 110.520
809.00 109.541
810.00 108.974
811.00 110.546
812.00 110.513
813.00 110.344
814.00 110.121
815.00 109.601
816.00 109.607
817.00 109.247
818.00 108.042
819.00 106.468
820.00 105.082
821.00 106.391
822.00 104.955
823.00 106.944
824.00 106.755
825.00 106.293
826.00 106.946
827.00 106.583
828.00 106.409
829.00 106.127
830.00 105.607
831.00 104.669
832.00 105.400
833.00 102.524
834.00 102.207
835.00 103.102
836.00 104.097
837.00 103.735
838.00 103.801
839.00 102.074
840.00 103.462
841.00 103.412
842.00 102.697
843.00 102.138
844.00 100.793
845.00 101.385
846.00 102.606
847.00 100.725
848.00 101.741
849.00 100.987
850.00 90.6822
851.00 99.2344
852.00 98.5891
853.00 97.7271
854.00 81.7060
855.00 84.9734
856.00 96.9577
857.00 99.3270
858.00 99.2576
859.00 98.8384
860.00 97.9962
861.00 98.0521
862.00 97.7054
863.00 98.5237
864.00 98.3020
865.00 95.9562
866.00 85.3705
867.00 86.5253
868.00 94.8770
869.00 94.1207
870.00 95.9210
871.00 95.5772
872.00 95.2497
873.00 95.1416
874.00 93.7594
875.00 93.7860
876.00 93.7381
877.00 94.2000
878.00 94.4394
879.00 94.0195
880.00 93.5019
881.00 89.7221
882.00 94.2120
883.00 93.4748
884.00 93.2804
885.00 93.4493
886.00 92.2138
887.00 90.1622
888.00 92.4759
889.00 92.8153
890.00 92.5396
891.00 92.3261
892.00 91.6103
893.00 90.5147
894.00 92.0891
895.00 90.6394
896.00 92.0098
897.00 91.1000
898.00 90.6819
899.00 90.8917
900.00 89.4080
901.00 86.7597
902.00 85.7906
903.00 88.6165
904.00 89.9273
905.00 89.8457
906.00 88.5340
907.00 88.6068
908.00 87.9093
909.00 86.4488
910.00 86.9624
911.00 87.9359
912.00 87.2329
913.00 88.5719
914.00 88.0476
915.00 86.9722
916.00 87.3673
917.00 86.7673
918.00 86.6087
919.00 86.8019
920.00 86.2404
921.00 84.5057
922.00 83.1629
923.00 81.6875
924.00 83.2855
925.00 83.9291
926.00 81.9352
927.00 84.7561
928.00 85.0378
929.00 84.3470
930.00 84.5245
931.00 84.3688
932.00 83.9744
933.00 84.3039
934.00 84.1357
935.00 83.6959
936.00 83.1771
937.00 83.3166
938.00 83.1462
939.00 82.8782
940.00 82.2077
941.00 79.9050
942.00 79.3877
943.00 81.3888
944.00 80.0834
945.00 80.7933
946.00 81.3028
947.00 81.6750
948.00 81.7077
949.00 81.5355
950.00 81.4331
951.00 80.8034
952.00 80.2767
953.00 79.8537
954.00 78.6069
955.00 75.3923
956.00 78.8736
957.00 79.0656
958.00 79.3916
959.00 79.6737
960.00 79.1590
961.00 79.0465
962.00 78.7141
963.00 78.0201
964.00 78.0301
965.00 78.3370
966.00 76.8821
967.00 78.1352
968.00 77.7549
969.00 77.7271
970.00 77.4668
971.00 77.3926
972.00 77.7253
973.00 77.1492
974.00 76.1091
975.00 76.6700
976.00 76.6738
977.00 76.1460
978.00 76.5737
979.00 75.8155
980.00 75.9343
981.00 76.1530
982.00 76.2807
983.00 75.9102
984.00 75.7387
985.00 75.7579
986.00 75.1501
987.00 74.8451
988.00 75.1397
989.00 73.9402
990.00 74.5173
991.00 74.6945
992.00 74.6098
993.00 74.1307
994.00 74.1458
995.00 73.7902
996.00 73.8333
997.00 73.8478
998.00 73.4985
999.00 73.1964
1000.0 72.8416
1001.0 73.0933
1002.0 72.7924
1003.0 72.2378
1004.0 70.6002
1005.0 66.5413
1006.0 69.0569
1007.0 70.6259
1008.0 71.7303
1009.0 71.6487
1010.0 71.7941
1011.0 71.6465
1012.0 71.2967
1013.0 71.0420
1014.0 71.1446
1015.0 70.2085
1016.0 70.7451
1017.0 70.7661
1018.0 70.7444
1019.0 70.5292
1020.0 70.0969
1021.0 70.2364
1022.0 68.9471
1023.0 69.6883
1024.0 69.7887
1025.0 69.5931
1026.0 69.4388
1027.0 69.3359
1028.0 69.1774
1029.0 68.6315
1030.0 68.6922
1031.0 68.6381
1032.0 68.5671
1033.0 67.2878
1034.0 67.6751
1035.0 67.1155
1036.0 67.9183
1037.0 67.0736
1038.0 66.9107
1039.0 67.5107
1040.0 66.8745
1041.0 67.0253
1042.0 67.0251
1043.0 66.7282
1044.0 66.7131
1045.0 66.3664
1046.0 64.6812
1047.0 65.7914
1048.0 66.2045
1049.0 66.0919
1050.0 65.8848
1051.0 65.7750
1052.0 65.5814
1053.0 65.1972
1054.0 64.9204
1055.0 65.2376
1056.0 65.0443
1057.0 65.1034
1058.0 64.1976
1059.0 62.4092
1060.0 64.0535
1061.0 63.2022
1062.0 64.1510
1063.0 63.4610
1064.0 63.9387
1065.0 63.8580
1066.0 62.5996
1067.0 62.9066
1068.0 62.7840
1069.0 59.3466
1070.0 61.1868
1071.0 62.2698
1072.0 62.8685
1073.0 60.4427
1074.0 62.3590
1075.0 60.5236
1076.0 61.7621
1077.0 62.3251
1078.0 61.7361
1079.0 59.5657
1080.0 61.7102
1081.0 60.1670
1082.0 60.1978
1083.0 58.0785
1084.0 60.3542
1085.0 60.1555
1086.0 60.9135
1087.0 57.3242
1088.0 59.4096
1089.0 59.1582
1090.0 60.1895
1091.0 60.1420
1092.0 59.1972
1093.0 58.6964
1094.0 54.4541
1095.0 57.5687
1096.0 57.5960
1097.0 57.5431
1098.0 57.3895
1099.0 58.0183
1100.0 58.7692
1101.0 58.5225
1102.0 56.7247
1103.0 58.1919
1104.0 58.2025
1105.0 58.1739
1106.0 58.1278
1107.0 58.1206
1108.0 57.9889
1109.0 57.8499
1110.0 57.8266
1111.0 57.6748
1112.0 57.0489
1113.0 56.9437
1114.0 57.3265
1115.0 56.8109
1116.0 56.9384
1117.0 57.2329
1118.0 56.9291
1119.0 55.7299
1120.0 55.9263
1121.0 56.3980
1122.0 56.6011
1123.0 56.3403
1124.0 56.1451
1125.0 55.5138
1126.0 54.8198
1127.0 56.1419
1128.0 55.8007
1129.0 55.0485
1130.0 54.9060
1131.0 55.1836
1132.0 55.2439
1133.0 55.0214
1134.0 55.0115
1135.0 54.9904
1136.0 54.6399
1137.0 54.9432
1138.0 54.0170
1139.0 53.6643
1140.0 53.7253
1141.0 52.8495
1142.0 53.5609
1143.0 54.0527
1144.0 53.8041
1145.0 53.7538
1146.0 53.9525
1147.0 53.7682
1148.0 53.6968
1149.0 53.0109
1150.0 53.4505
1151.0 53.1670
1152.0 53.3153
1153.0 53.2613
1154.0 53.2278
1155.0 53.1570
1156.0 53.1354
1157.0 52.9005
1158.0 52.7520
1159.0 51.7788
1160.0 51.3997
1161.0 50.6679
1162.0 51.5617
1163.0 51.7804
1164.0 51.1967
1165.0 51.6371
1166.0 51.0068
1167.0 51.3031
1168.0 51.5787
1169.0 50.8837
1170.0 50.9949
1171.0 51.5368
1172.0 51.5104
1173.0 51.4455
1174.0 51.3170
1175.0 50.0907
1176.0 49.5461
1177.0 50.5958
1178.0 49.9667
1179.0 50.3471
1180.0 50.5353
1181.0 50.5809
1182.0 50.3409
1183.0 46.2413
1184.0 48.5402
1185.0 49.8315
1186.0 50.0765
1187.0 49.8567
1188.0 49.2299
1189.0 48.1897
1190.0 48.8878
1191.0 49.6998
1192.0 49.6702
1193.0 49.4605
1194.0 49.4684
1195.0 48.8917
1196.0 49.0491
1197.0 48.8001
1198.0 47.5220
1199.0 45.4272
1200.0 47.9070
1201.0 48.5698
1202.0 48.7584
1203.0 46.7904
1204.0 46.6140
1205.0 48.3142
1206.0 48.2853
1207.0 48.3473
1208.0 47.3230
1209.0 46.0417
1210.0 47.4787
1211.0 46.2731
1212.0 47.5074
1213.0 47.6702
1214.0 47.3038
1215.0 47.6166
1216.0 47.5402
1217.0 47.3293
1218.0 46.9361
1219.0 46.8777
1220.0 46.9271
1221.0 47.0168
1222.0 46.8173
1223.0 46.5280
1224.0 46.7519
1225.0 46.6652
1226.0 46.5735
1227.0 45.5064
1228.0 45.8442
1229.0 46.1692
1230.0 45.9556
1231.0 46.1737
1232.0 45.9300
1233.0 45.9954
1234.0 45.7277
1235.0 45.6700
1236.0 45.7181
1237.0 45.6977
1238.0 45.6782
1239.0 45.2472
1240.0 44.8248
1241.0 45.2270
1242.0 44.9283
1243.0 44.5559
1244.0 44.2971
1245.0 44.9621
1246.0 44.6969
1247.0 44.8215
1248.0 44.6687
1249.0 44.6602
1250.0 44.5862
1251.0 44.5478
1252.0 44.3046
1253.0 44.1023
1254.0 44.3300
1255.0 44.1015
1256.0 43.8221
1257.0 43.7198
1258.0 43.7340
1259.0 43.4133
1260.0 43.6849
1261.0 43.4955
1262.0 42.9813
1263.0 43.2491
1264.0 42.9398
1265.0 43.0618
1266.0 43.2182
1267.0 43.2215
1268.0 42.5725
1269.0 42.8979
1270.0 43.0953
1271.0 43.0598
1272.0 42.9611
1273.0 42.8547
1274.0 42.5437
1275.0 42.5535
1276.0 42.5200
1277.0 42.3627
1278.0 42.2018
1279.0 41.8707
1280.0 41.4545
1281.0 40.1567
1282.0 36.1933
1283.0 39.1122
1284.0 40.8853
1285.0 41.2632
1286.0 41.5487
1287.0 41.5550
1288.0 41.3577
1289.0 41.4447
1290.0 40.7814
1291.0 41.1185
1292.0 41.3320
1293.0 41.3234
1294.0 41.1077
1295.0 41.2288
1296.0 41.1997
1297.0 41.0789
1298.0 40.5543
1299.0 40.9765
1300.0 40.9066
1301.0 40.7031
1302.0 40.7542
1303.0 40.3160
1304.0 40.2220
1305.0 40.4342
1306.0 40.3854
1307.0 40.3514
1308.0 40.3101
1309.0 40.1969
1310.0 39.8934
1311.0 39.7615
1312.0 39.6176
1313.0 38.6194
1314.0 39.6679
1315.0 38.7594
1316.0 38.9656
1317.0 39.5380
1318.0 38.5145
1319.0 39.5007
1320.0 39.3971
1321.0 39.3591
1322.0 39.2886
1323.0 39.2821
1324.0 39.2365
1325.0 39.1007
1326.0 38.9737
1327.0 38.9242
1328.0 38.7690
1329.0 37.6041
1330.0 38.2706
1331.0 38.3554
1332.0 37.9328
1333.0 37.8240
1334.0 38.5238
1335.0 38.3113
1336.0 38.1708
1337.0 38.3430
1338.0 38.2450
1339.0 37.7666
1340.0 37.7725
1341.0 38.0493
1342.0 37.8066
1343.0 37.6982
1344.0 37.6158
1345.0 37.7744
1346.0 37.6905
1347.0 37.6518
1348.0 37.5926
1349.0 37.4556
1350.0 36.8741
1351.0 36.8983
1352.0 37.3093
1353.0 37.2333
1354.0 37.1921
1355.0 37.1032
1356.0 36.9288
1357.0 36.3732
1358.0 36.9088
1359.0 36.8626
1360.0 36.7297
1361.0 36.6916
1362.0 36.6421
1363.0 35.9767
1364.0 36.4448
1365.0 36.4733
1366.0 36.3523
1367.0 36.0044
1368.0 36.2470
1369.0 36.1447
1370.0 35.8211
1371.0 35.8096
1372.0 35.7107
1373.0 35.8439
1374.0 35.8653
1375.0 35.7175
1376.0 35.7615
1377.0 35.6817
1378.0 35.4812
1379.0 35.5349
1380.0 35.4989
1381.0 35.4848
1382.0 35.4251
1383.0 35.3657
1384.0 35.2911
1385.0 35.2134
1386.0 35.1197
1387.0 34.6995
1388.0 34.9089
1389.0 34.8710
1390.0 34.5257
1391.0 34.8170
1392.0 34.8356
1393.0 34.7820
1394.0 34.6377
1395.0 34.6166
1396.0 34.5139
1397.0 34.2655
1398.0 34.3939
1399.0 34.3960
1400.0 34.1451
1401.0 33.8408
1402.0 34.1728
1403.0 34.0420
1404.0 34.0401
1405.0 34.0728
1406.0 33.8437
1407.0 33.8329
1408.0 33.5394
1409.0 33.7555
1410.0 33.7090
1411.0 33.6141
1412.0 33.2806
1413.0 33.0400
1414.0 33.4932
1415.0 33.5523
1416.0 33.4545
1417.0 33.1981
1418.0 33.2783
1419.0 33.2599
1420.0 33.2301
1421.0 32.9681
1422.0 32.8335
1423.0 32.4197
1424.0 32.5398
1425.0 32.7137
1426.0 32.6589
1427.0 32.8508
1428.0 32.6681
1429.0 31.8215
1430.0 32.0829
1431.0 32.3931
1432.0 32.5204
1433.0 32.4231
1434.0 32.2985
1435.0 32.4193
1436.0 32.1316
1437.0 32.1259
1438.0 32.3137
1439.0 32.1574
1440.0 30.9022
1441.0 31.0338
1442.0 31.6037
1443.0 31.4298
1444.0 31.3725
1445.0 31.3361
1446.0 31.6879
1447.0 31.5352
1448.0 31.5512
1449.0 31.4650
1450.0 31.4136
1451.0 31.2346
1452.0 30.7538
1453.0 31.2740
1454.0 31.0866
1455.0 30.3140
1456.0 30.3903
1457.0 30.7020
1458.0 31.1794
1459.0 31.0775
1460.0 30.8954
1461.0 31.0020
1462.0 30.6877
1463.0 30.9398
1464.0 30.7159
1465.0 30.5513
1466.0 30.1676
1467.0 30.8261
1468.0 30.5945
1469.0 30.5991
1470.0 30.4554
1471.0 30.2621
1472.0 30.3723
1473.0 30.3873
1474.0 30.2141
1475.0 29.9804
1476.0 30.1974
1477.0 30.0659
1478.0 29.7437
1479.0 29.8907
1480.0 30.2087
1481.0 29.9749
1482.0 29.9296
1483.0 29.2812
1484.0 29.6242
1485.0 29.6997
1486.0 29.6524
1487.0 29.0699
1488.0 25.6995
1489.0 28.5676
1490.0 29.3584
1491.0 29.3719
1492.0 29.5487
1493.0 29.6015
1494.0 29.2276
1495.0 29.1930
1496.0 28.6936
1497.0 29.2001
1498.0 29.1988
1499.0 28.9591
1500.0 29.2567
1501.0 29.1212
1502.0 28.1528
1503.0 25.4405
1504.0 26.7107
1505.0 25.5727
1506.0 28.0904
1507.0 28.9561
1508.0 28.7133
1509.0 28.7711
1510.0 28.1682
1511.0 28.7818
1512.0 28.5609
1513.0 28.4803
1514.0 28.2630
1515.0 28.4328
1516.0 28.1849
1517.0 28.0727
1518.0 28.1874
1519.0 28.3578
1520.0 28.2614
1521.0 27.6519
1522.0 27.5250
1523.0 27.7503
1524.0 27.9373
1525.0 27.5645
1526.0 28.0431
1527.0 27.9077
1528.0 28.0944
1529.0 27.6714
1530.0 26.4451
1531.0 27.7741
1532.0 27.8788
1533.0 27.7465
1534.0 27.1820
1535.0 27.4361
1536.0 27.6379
1537.0 27.6454
1538.0 27.0833
1539.0 27.2220
1540.0 26.5778
1541.0 27.1988
1542.0 27.3641
1543.0 27.1681
1544.0 27.3791
1545.0 27.3320
1546.0 27.0927
1547.0 27.0707
1548.0 26.7299
1549.0 26.9882
1550.0 26.5666
1551.0 26.6549
1552.0 26.7918
1553.0 26.7221
1554.0 26.1241
1555.0 26.4351
1556.0 25.7569
1557.0 26.4337
1558.0 26.6777
1559.0 26.1028
1560.0 25.9573
1561.0 25.9732
1562.0 25.9298
1563.0 25.7420
1564.0 25.8565
1565.0 26.0225
1566.0 25.9869
1567.0 25.7086
1568.0 25.4634
1569.0 25.0558
1570.0 25.2191
1571.0 26.0893
1572.0 25.9968
1573.0 25.4598
1574.0 25.1586
1575.0 23.6401
1576.0 24.8859
1577.0 22.4000
1578.0 24.7637
1579.0 25.3756
1580.0 25.2918
1581.0 25.4535
1582.0 24.4976
1583.0 24.6095
1584.0 24.1523
1585.0 25.3948
1586.0 25.1850
1587.0 24.7014
1588.0 24.5579
1589.0 22.2090
1590.0 22.7955
1591.0 23.8718
1592.0 24.5215
1593.0 24.9179
1594.0 24.9066
1595.0 24.8420
1596.0 23.6465
1597.0 23.5313
1598.0 24.4967
1599.0 24.7039
1600.0 24.8820
1601.0 23.5478
1602.0 24.2827
1603.0 24.6327
1604.0 24.2146
1605.0 24.1755
1606.0 24.3789
1607.0 24.2447
1608.0 24.0105
1609.0 24.1826
1610.0 23.0946
1611.0 23.7758
1612.0 23.8537
1613.0 23.6152
1614.0 24.0725
1615.0 24.2593
1616.0 23.4258
1617.0 23.1979
1618.0 23.5124
1619.0 23.6135
1620.0 23.1766
1621.0 23.1667
1622.0 23.2055
1623.0 23.7393
1624.0 23.4360
1625.0 23.4429
1626.0 23.9163
1627.0 24.0059
1628.0 23.8341
1629.0 23.6068
1630.0 23.6724
1631.0 23.6474
1632.0 22.6874
1633.0 23.1659
1634.0 23.3742
1635.0 23.3715
1636.0 23.1875
1637.0 22.3760
1638.0 22.3259
1639.0 21.8732
1640.0 22.0178
1641.0 21.8844
1642.0 22.3234
1643.0 22.6245
1644.0 22.2813
1645.0 22.0592
1646.0 22.7644
1647.0 22.5264
1648.0 22.4224
1649.0 21.9533
1650.0 22.5875
1651.0 22.5770
1652.0 22.1096
1653.0 21.8244
1654.0 22.1132
1655.0 22.0824
1656.0 22.0627
1657.0 22.1965
1658.0 22.5055
1659.0 22.2636
1660.0 22.3568
1661.0 22.2531
1662.0 22.1335
1663.0 22.1002
1664.0 22.0724
1665.0 21.7713
1666.0 21.5338
1667.0 21.5784
1668.0 21.4613
1669.0 21.3325
1670.0 21.8487
1671.0 21.7891
1672.0 21.1079
1673.0 21.0851
1674.0 21.6321
1675.0 20.9928
1676.0 20.5385
1677.0 20.9430
1678.0 21.2200
1679.0 20.9692
1680.0 20.6307
1681.0 20.4367
1682.0 20.3392
1683.0 20.4114
1684.0 20.7694
1685.0 20.9389
1686.0 20.8409
1687.0 20.7153
1688.0 20.8738
1689.0 20.5028
1690.0 20.5056
1691.0 20.9507
1692.0 20.9436
1693.0 20.6742
1694.0 20.7616
1695.0 20.7802
1696.0 20.5907
1697.0 20.4258
1698.0 20.6017
1699.0 20.7136
1700.0 20.2516
1701.0 20.0376
1702.0 20.3517
1703.0 20.5193
1704.0 20.3913
1705.0 20.3211
1706.0 20.3390
1707.0 20.0585
1708.0 20.1964
1709.0 20.2335
1710.0 20.0944
1711.0 18.6482
1712.0 19.4037
1713.0 20.0933
1714.0 19.9854
1715.0 20.0464
1716.0 19.8728
1717.0 19.7256
1718.0 19.9088
1719.0 19.8584
1720.0 19.7483
1721.0 19.3200
1722.0 19.6055
1723.0 18.9897
1724.0 19.1688
1725.0 19.5154
1726.0 19.3953
1727.0 19.3595
1728.0 18.8630
1729.0 19.0756
1730.0 18.9692
1731.0 18.7436
1732.0 18.7222
1733.0 17.5664
1734.0 17.9692
1735.0 18.1335
1736.0 17.8466
1737.0 17.7400
1738.0 18.1139
1739.0 18.3194
1740.0 18.3282
1741.0 17.8542
1742.0 18.3758
1743.0 18.4746
1744.0 18.5172
1745.0 18.3427
1746.0 18.1512
1747.0 18.0278
1748.0 18.2024
1749.0 18.4597
1750.0 18.4805
1751.0 18.1634
1752.0 18.2106
1753.0 18.1210
1754.0 18.1742
1755.0 18.0919
1756.0 18.0750
1757.0 18.2869
1758.0 18.0973
1759.0 18.0495
1760.0 18.1565
1761.0 17.7634
1762.0 17.3676
1763.0 17.7139
1764.0 17.6613
1765.0 17.9263
1766.0 18.0373
1767.0 17.9589
1768.0 17.8532
1769.0 17.6757
1770.0 17.7132
1771.0 17.5055
1772.0 17.4519
1773.0 17.2542
1774.0 17.4779
1775.0 17.4119
1776.0 17.4523
1777.0 17.1000
1778.0 17.2322
1779.0 17.4329
1780.0 17.3124
1781.0 17.3804
1782.0 17.0642
1783.0 16.8675
1784.0 16.8406
1785.0 16.8445
1786.0 17.2365
1787.0 17.2000
1788.0 17.1503
1789.0 17.0297
1790.0 17.0305
1791.0 16.9990
1792.0 16.9616
1793.0 16.6910
1794.0 16.3681
1795.0 16.6374
1796.0 16.6382
1797.0 16.6896
1798.0 16.5852
1799.0 16.2679
1800.0 16.5231
1801.0 16.4030
1802.0 16.2430
1803.0 16.1986
1804.0 16.3086
1805.0 16.3373
1806.0 15.9259
1807.0 16.2321
1808.0 16.2186
1809.0 16.1437
1810.0 15.8150
1811.0 15.9857
1812.0 15.8064
1813.0 15.8331
1814.0 15.7774
1815.0 15.4807
1816.0 15.4055
1817.0 15.2007
1818.0 14.8805
1819.0 15.1522
1820.0 15.3567
1821.0 15.6492
1822.0 15.6296
1823.0 15.2675
1824.0 15.7074
1825.0 15.7662
1826.0 15.8312
1827.0 15.7525
1828.0 15.5831
1829.0 15.2926
1830.0 15.7051
1831.0 15.7066
1832.0 15.5514
1833.0 15.4189
1834.0 15.6641
1835.0 15.6476
1836.0 15.5617
1837.0 14.9232
1838.0 14.6877
1839.0 15.3481
1840.0 15.0104
1841.0 15.0888
1842.0 14.7689
1843.0 14.7262
1844.0 15.0864
1845.0 14.8991
1846.0 14.9837
1847.0 13.9843
1848.0 14.7446
1849.0 15.0032
1850.0 14.7697
1851.0 14.9583
1852.0 15.1432
1853.0 14.9621
1854.0 15.1035
1855.0 14.8046
1856.0 14.6626
1857.0 15.0051
1858.0 14.7667
1859.0 14.6332
1860.0 14.7617
1861.0 14.8315
1862.0 14.7644
1863.0 14.8356
1864.0 14.7072
1865.0 14.7261
1866.0 14.4188
1867.0 14.6559
1868.0 14.6767
1869.0 14.5529
1870.0 14.4725
1871.0 14.4067
1872.0 14.1632
1873.0 13.6450
1874.0 13.5536
1875.0 12.1908
1876.0 11.5187
1877.0 13.3737
1878.0 13.5760
1879.0 13.9282
1880.0 14.1573
1881.0 14.2162
1882.0 14.1415
1883.0 14.0269
1884.0 14.1977
1885.0 13.8441
1886.0 13.7835
1887.0 14.0651
1888.0 13.9877
1889.0 13.8629
1890.0 13.9511
1891.0 13.8714
1892.0 13.6202
1893.0 13.6873
1894.0 13.8445
1895.0 13.6342
1896.0 13.2742
1897.0 13.7769
1898.0 13.8557
1899.0 13.6587
1900.0 13.7882
1901.0 13.7228
1902.0 13.7792
1903.0 13.6243
1904.0 13.5287
1905.0 13.6259
1906.0 13.6937
1907.0 13.5835
1908.0 13.5455
1909.0 13.5793
1910.0 13.5456
1911.0 13.4263
1912.0 13.2609
1913.0 13.4704
1914.0 13.5003
1915.0 13.4806
1916.0 13.3605
1917.0 13.3876
1918.0 13.3262
1919.0 13.2816
1920.0 12.6351
1921.0 13.1785
1922.0 13.1686
1923.0 13.2127
1924.0 13.2244
1925.0 13.2299
1926.0 13.0968
1927.0 13.0653
1928.0 13.0918
1929.0 12.8205
1930.0 13.0542
1931.0 12.7080
1932.0 12.7795
1933.0 12.9760
1934.0 12.8801
1935.0 12.8231
1936.0 12.8792
1937.0 12.8258
1938.0 12.7423
1939.0 12.3563
1940.0 12.4608
1941.0 12.5081
1942.0 12.3952
1943.0 12.0100
1944.0 11.4481
1945.0 11.2378
1946.0 11.2940
1947.0 12.0653
1948.0 12.2239
1949.0 12.1622
1950.0 12.0130
1951.0 11.5604
1952.0 12.2455
1953.0 12.4760
1954.0 12.3725
1955.0 12.4272
1956.0 12.4500
1957.0 12.4089
1958.0 12.3534
1959.0 12.3212
1960.0 12.2458
1961.0 12.3339
1962.0 12.1326
1963.0 12.2516
1964.0 12.1202
1965.0 12.2657
1966.0 12.2954
1967.0 12.2696
1968.0 12.2401
1969.0 12.1867
1970.0 12.1875
1971.0 12.1761
1972.0 11.9457
1973.0 11.3142
1974.0 11.8046
1975.0 12.0453
1976.0 12.0611
1977.0 12.0232
1978.0 11.3252
1979.0 11.7599
1980.0 11.7837
1981.0 11.9443
1982.0 11.7226
1983.0 11.8935
1984.0 11.8961
1985.0 11.6673
1986.0 11.3909
1987.0 11.4816
1988.0 11.8106
1989.0 11.7757
1990.0 11.7593
1991.0 11.7386
1992.0 11.5825
1993.0 11.3608
1994.0 11.2213
1995.0 11.5658
1996.0 11.5678
1997.0 11.4259
1998.0 11.3872
1999.0 11.5742
2000.0 11.5509
2001.0 11.4301
2002.0 11.4517
2003.0 11.2791
2004.0 11.4407
2005.0 11.3607
2006.0 11.2909
2007.0 11.3754
2008.0 11.3586
2009.0 11.3490
2010.0 11.2619
2011.0 11.3190
2012.0 11.3049
2013.0 11.2752
2014.0 11.2687
2015.0 11.2217
2016.0 11.2168
2017.0 11.1880
2018.0 11.1759
2019.0 11.1698
2020.0 11.1396
2021.0 11.1253
2022.0 11.1033
2023.0 11.0796
2024.0 11.0503
2025.0 11.0326
2026.0 11.0244
2027.0 10.9738
2028.0 10.9550
2029.0 10.8364
2030.0 10.7354
2031.0 10.7951
2032.0 10.9032
2033.0 10.8779
2034.0 10.8586
2035.0 10.7073
2036.0 10.8173
2037.0 10.7615
2038.0 10.6558
2039.0 10.6315
2040.0 10.7607
2041.0 10.7108
2042.0 10.7109
2043.0 10.7119
2044.0 10.6838
2045.0 10.6185
2046.0 10.6444
2047.0 10.6137
2048.0 10.5854
2049.0 10.5653
2050.0 10.5046
2051.0 10.5394
2052.0 10.5323
2053.0 10.5260
2054.0 10.4986
2055.0 10.4810
2056.0 10.4595
2057.0 10.4310
2058.0 10.4207
2059.0 10.3256
2060.0 10.3256
2061.0 10.1219
2062.0 10.3328
2063.0 10.2095
2064.0 10.1377
2065.0 10.2860
2066.0 10.2849
2067.0 10.2640
2068.0 10.1929
2069.0 10.2129
2070.0 10.0259
2071.0 10.0489
2072.0 10.0559
2073.0 10.0584
2074.0 10.0095
2075.0 10.0992
2076.0 10.0978
2077.0 10.0705
2078.0 10.0688
2079.0 10.0542
2080.0 9.98452
2081.0 9.74298
2082.0 9.95804
2083.0 9.96270
2084.0 9.89674
2085.0 9.80193
2086.0 9.89516
2087.0 9.89632
2088.0 9.88358
2089.0 9.85027
2090.0 9.82010
2091.0 9.81086
2092.0 9.50533
2093.0 9.66374
2094.0 9.76904
2095.0 9.75024
2096.0 9.71588
2097.0 9.69353
2098.0 9.69306
2099.0 9.69507
2100.0 9.67609
2101.0 9.66129
2102.0 9.62747
2103.0 9.56072
2104.0 9.59435
2105.0 9.53041
2106.0 9.24436
2107.0 9.02638
2108.0 9.50637
2109.0 9.46328
2110.0 9.25754
2111.0 9.45391
2112.0 9.44649
2113.0 9.38667
2114.0 9.35525
2115.0 9.32425
2116.0 9.31471
2117.0 9.03478
2118.0 9.32255
2119.0 9.32038
2120.0 9.17019
2121.0 9.14416
2122.0 9.17018
2123.0 9.24653
2124.0 9.23466
2125.0 9.22351
2126.0 9.18745
2127.0 9.14912
2128.0 9.21801
2129.0 9.20344
2130.0 9.14911
2131.0 9.17015
2132.0 9.16039
2133.0 9.11901
2134.0 9.11959
2135.0 9.08590
2136.0 8.73276
2137.0 9.02497
2138.0 9.01537
2139.0 9.01611
2140.0 9.02237
2141.0 9.02953
2142.0 9.01034
2143.0 8.90792
2144.0 8.92047
2145.0 8.86957
2146.0 8.86518
2147.0 8.90371
2148.0 8.89898
2149.0 8.84464
2150.0 8.86545
2151.0 8.86784
2152.0 8.83616
2153.0 8.79868
2154.0 8.80412
2155.0 8.79248
2156.0 8.76818
2157.0 8.74719
2158.0 8.71633
2159.0 8.71129
2160.0 8.67110
2161.0 8.63505
2162.0 8.55008
2163.0 8.49940
2164.0 8.39217
2165.0 8.10692
2166.0 7.57301
2167.0 7.95874
2168.0 8.29703
2169.0 8.41012
2170.0 8.42639
2171.0 8.46651
2172.0 8.49740
2173.0 8.49764
2174.0 8.47954
2175.0 8.49712
2176.0 8.44988
2177.0 8.46753
2178.0 8.33535
2179.0 8.23984
2180.0 8.43323
2181.0 8.43839
2182.0 8.31287
2183.0 8.27531
2184.0 8.37144
2185.0 8.37809
2186.0 8.35417
2187.0 8.33618
2188.0 8.12214
2189.0 8.13941
2190.0 8.23032
2191.0 8.29924
2192.0 8.28802
2193.0 8.26570
2194.0 8.26794
2195.0 8.24886
2196.0 8.24136
2197.0 8.22288
2198.0 8.20634
2199.0 8.15666
2200.0 8.14688
2201.0 8.14974
2202.0 8.15152
2203.0 8.14608
2204.0 8.13774
2205.0 8.11356
2206.0 7.79219
2207.0 7.72198
2208.0 8.01231
2209.0 7.85376
2210.0 8.04380
2211.0 8.04456
2212.0 8.02323
2213.0 8.01521
2214.0 7.99981
2215.0 7.98889
2216.0 7.96725
2217.0 7.94986
2218.0 7.94545
2219.0 7.93921
2220.0 7.92521
2221.0 7.90726
2222.0 7.89468
2223.0 7.88724
2224.0 7.86528
2225.0 7.85046
2226.0 7.72118
2227.0 7.73342
2228.0 7.81030
2229.0 7.81024
2230.0 7.79385
2231.0 7.78330
2232.0 7.77293
2233.0 7.76054
2234.0 7.74708
2235.0 7.72296
2236.0 7.71936
2237.0 7.70316
2238.0 7.63578
2239.0 7.52654
2240.0 7.61490
2241.0 7.65016
2242.0 7.61110
2243.0 7.57725
2244.0 7.61910
2245.0 7.60781
2246.0 7.59458
2247.0 7.56934
2248.0 7.41053
2249.0 7.54858
2250.0 7.52994
2251.0 7.50068
2252.0 7.47743
2253.0 7.44978
2254.0 7.37534
2255.0 7.42036
2256.0 7.41106
2257.0 7.41294
2258.0 7.42692
2259.0 7.43106
2260.0 7.42038
2261.0 7.32907
2262.0 7.26599
2263.0 7.06623
2264.0 7.33193
2265.0 7.28258
2266.0 7.13442
2267.0 7.21597
2268.0 7.30553
2269.0 7.31473
2270.0 7.29480
2271.0 7.23336
2272.0 7.25009
2273.0 7.26866
2274.0 7.22724
2275.0 7.18567
2276.0 7.21508
2277.0 7.20644
2278.0 7.19727
2279.0 7.18251
2280.0 7.12569
2281.0 6.83383
2282.0 6.88785
2283.0 7.09792
2284.0 7.09282
2285.0 7.08541
2286.0 7.10557
2287.0 7.10478
2288.0 7.09111
2289.0 7.06333
2290.0 7.05774
2291.0 6.98886
2292.0 7.02153
2293.0 6.96440
2294.0 6.80536
2295.0 6.90620
2296.0 6.88800
2297.0 6.91070
2298.0 6.92923
2299.0 6.90734
2300.0 6.90569
2301.0 6.90519
2302.0 6.90166
2303.0 6.88433
2304.0 6.87626
2305.0 6.85983
2306.0 6.84018
2307.0 6.85202
2308.0 6.82375
2309.0 6.82898
2310.0 6.82219
2311.0 6.81150
2312.0 6.80487
2313.0 6.79399
2314.0 6.76641
2315.0 6.64055
2316.0 6.73585
2317.0 6.69231
2318.0 6.69080
2319.0 6.70065
2320.0 6.71772
2321.0 6.70363
2322.0 6.66228
2323.0 6.45489
2324.0 6.53128
2325.0 6.54712
2326.0 6.56731
2327.0 6.57276
2328.0 6.57268
2329.0 6.55366
2330.0 6.56232
2331.0 6.54947
2332.0 6.54613
2333.0 6.52837
2334.0 6.51842
2335.0 6.44743
2336.0 6.44184
2337.0 6.51371
2338.0 6.40499
2339.0 6.35398
2340.0 6.48431
2341.0 6.47897
2342.0 6.47990
2343.0 6.46224
2344.0 6.44787
2345.0 6.44141
2346.0 6.44121
2347.0 6.42716
2348.0 6.41855
2349.0 6.41730
2350.0 6.39835
2351.0 6.37086
2352.0 6.29727
2353.0 6.14763
2354.0 6.23451
2355.0 6.26547
2356.0 6.26626
2357.0 6.20624
2358.0 6.20864
2359.0 6.23229
2360.0 6.26463
2361.0 6.24925
2362.0 6.25592
2363.0 6.23814
2364.0 6.24774
2365.0 6.23588
2366.0 6.22647
2367.0 6.20743
2368.0 6.21807
2369.0 6.17638
2370.0 6.14680
2371.0 6.17368
2372.0 6.18923
2373.0 6.15865
2374.0 6.16441
2375.0 6.16905
2376.0 6.16637
2377.0 6.16595
2378.0 6.14807
2379.0 6.13731
2380.0 6.11671
2381.0 6.11579
2382.0 6.11831
2383.0 5.94215
2384.0 5.90128
2385.0 5.81191
2386.0 5.84876
2387.0 5.82305
2388.0 5.99695
2389.0 6.00948
2390.0 6.00619
2391.0 6.00253
2392.0 6.00046
2393.0 5.94308
2394.0 5.99288
2395.0 5.95389
2396.0 5.92698
2397.0 5.96795
2398.0 5.94047
2399.0 5.95159
2400.0 5.91998
2401.0 5.93105
2402.0 5.94261
2403.0 5.91454
2404.0 5.88811
2405.0 5.90244
2406.0 5.89855
2407.0 5.88803
2408.0 5.88198
2409.0 5.85444
2410.0 5.86280
2411.0 5.85407
2412.0 5.84796
2413.0 5.83135
2414.0 5.72592
2415.0 5.70230
2416.0 5.73858
2417.0 5.72833
2418.0 5.76108
2419.0 5.75458
2420.0 5.72060
2421.0 5.74154
2422.0 5.74155
2423.0 5.72312
2424.0 5.72651
2425.0 5.70388
2426.0 5.70317
2427.0 5.66679
2428.0 5.67086
2429.0 5.66335
2430.0 5.68201
2431.0 5.64489
2432.0 5.65879
2433.0 5.65501
2434.0 5.61994
2435.0 5.61294
2436.0 5.62149
2437.0 5.61560
2438.0 5.52640
2439.0 5.60732
2440.0 5.61166
2441.0 5.57159
2442.0 5.57485
2443.0 5.58447
2444.0 5.56277
2445.0 5.53965
2446.0 5.45291
2447.0 5.44451
2448.0 5.44819
2449.0 5.45672
2450.0 5.46030
2451.0 5.43300
2452.0 5.46796
2453.0 5.46021
2454.0 5.41452
2455.0 5.40159
2456.0 5.34482
2457.0 5.28407
2458.0 5.35613
2459.0 5.42552
2460.0 5.42363
2461.0 5.41628
2462.0 5.39336
2463.0 5.33158
2464.0 5.39786
2465.0 5.35214
2466.0 5.35771
2467.0 5.37377
2468.0 5.35977
2469.0 5.34993
2470.0 5.34391
2471.0 5.33766
2472.0 5.31537
2473.0 5.26723
2474.0 5.24827
2475.0 5.30579
2476.0 5.28225
2477.0 5.30503
2478.0 5.28377
2479.0 5.16127
2480.0 5.10146
2481.0 5.03998
2482.0 5.05480
2483.0 5.01362
2484.0 5.21231
2485.0 5.19700
2486.0 5.07552
2487.0 4.85493
2488.0 5.16863
2489.0 5.15405
2490.0 5.17534
2491.0 5.15434
2492.0 5.15545
2493.0 5.10149
2494.0 5.14546
2495.0 5.11551
2496.0 5.13144
2497.0 5.11899
2498.0 5.10315
2499.0 5.10385
2500.0 5.08895
2501.0 5.08984
2502.0 5.09639
2503.0 5.06380
2504.0 5.05568
2505.0 5.06576
2506.0 5.06633
2507.0 5.02240
2508.0 5.01671
2509.0 5.03419
2510.0 4.99077
2511.0 4.96888
2512.0 4.96758
2513.0 4.95427
2514.0 4.96654
2515.0 4.95673
2516.0 4.96656
2517.0 4.96110
2518.0 4.89886
2519.0 4.93875
2520.0 4.93829
2521.0 4.93738
2522.0 4.92663
2523.0 4.92069
2524.0 4.90053
2525.0 4.90453
2526.0 4.88226
2527.0 4.87901
2528.0 4.88016
2529.0 4.86474
2530.0 4.87192
2531.0 4.87129
2532.0 4.86353
2533.0 4.83596
2534.0 4.84662
2535.0 4.84709
2536.0 4.82885
2537.0 4.80491
2538.0 4.80389
2539.0 4.76267
2540.0 4.78130
2541.0 4.59928
2542.0 4.24207
2543.0 4.69068
2544.0 4.74044
2545.0 4.73751
2546.0 4.74099
2547.0 4.69291
2548.0 4.67839
2549.0 4.69163
2550.0 4.71313
2551.0 4.67341
2552.0 4.59732
2553.0 4.60281
2554.0 4.67752
2555.0 4.65786
2556.0 4.62386
2557.0 4.62917
2558.0 4.63663
2559.0 4.66104
2560.0 4.61903
2561.0 4.57164
2562.0 4.48028
2563.0 4.53914
2564.0 4.59880
2565.0 4.56323
2566.0 4.60161
2567.0 4.56695
2568.0 4.58417
2569.0 4.59081
2570.0 4.55244
2571.0 4.55436
2572.0 4.56620
2573.0 4.57173
2574.0 4.55804
2575.0 4.54504
2576.0 4.55268
2577.0 4.54358
2578.0 4.52377
2579.0 4.54271
2580.0 4.52972
2581.0 4.50246
2582.0 4.46756
2583.0 4.49052
2584.0 4.44047
2585.0 4.42347
2586.0 4.26025
2587.0 4.36715
2588.0 4.45189
2589.0 4.45860
2590.0 4.44520
2591.0 4.44472
2592.0 4.41724
2593.0 4.29250
2594.0 4.37133
2595.0 4.30766
2596.0 4.32566
2597.0 4.31444
2598.0 4.37191
2599.0 4.38583
2600.0 4.34802
2601.0 4.34215
2602.0 4.32302
2603.0 4.35448
2604.0 4.34793
2605.0 4.32875
2606.0 4.35792
2607.0 4.34663
2608.0 4.34829
2609.0 4.33483
2610.0 4.33138
2611.0 4.33321
2612.0 4.30708
2613.0 4.30995
2614.0 4.30803
2615.0 4.30280
2616.0 4.28371
2617.0 4.27414
2618.0 4.23488
2619.0 4.21723
2620.0 4.22924
2621.0 4.20916
2622.0 4.15653
2623.0 4.06720
2624.0 4.07752
2625.0 3.88035
2626.0 3.65303
2627.0 3.95495
2628.0 4.08835
2629.0 4.12953
2630.0 4.14670
2631.0 4.12646
2632.0 4.15715
2633.0 4.17711
2634.0 4.16994
2635.0 4.16053
2636.0 4.17070
2637.0 4.16873
2638.0 4.14453
2639.0 4.11604
2640.0 3.82918
2641.0 4.10898
2642.0 4.10400
2643.0 4.11268
2644.0 4.12994
2645.0 4.12758
2646.0 4.11826
2647.0 4.10107
2648.0 4.06680
2649.0 4.09453
2650.0 4.10020
2651.0 4.07411
2652.0 4.07181
2653.0 4.08487
2654.0 4.04066
2655.0 3.95439
2656.0 4.05029
2657.0 4.05919
2658.0 4.05107
2659.0 4.03701
2660.0 4.03226
2661.0 4.02825
2662.0 3.99463
2663.0 3.98278
2664.0 3.98971
2665.0 3.87835
2666.0 3.96291
2667.0 3.94090
2668.0 3.99578
2669.0 3.99081
2670.0 3.98408
2671.0 3.97724
2672.0 3.97808
2673.0 3.97256
2674.0 3.96716
2675.0 3.94843
2676.0 3.94956
2677.0 3.95203
2678.0 3.94784
2679.0 3.94205
2680.0 3.92157
2681.0 3.92013
2682.0 3.92076
2683.0 3.91053
2684.0 3.91013
2685.0 3.90588
2686.0 3.90259
2687.0 3.89927
2688.0 3.87090
2689.0 3.88260
2690.0 3.88047
2691.0 3.86953
2692.0 3.86127
2693.0 3.85968
2694.0 3.84972
2695.0 3.83765
2696.0 3.81709
2697.0 3.83800
2698.0 3.84592
2699.0 3.83837
2700.0 3.82219
2701.0 3.81221
2702.0 3.81618
2703.0 3.81683
2704.0 3.80293
2705.0 3.81225
2706.0 3.79586
2707.0 3.74656
2708.0 3.76594
2709.0 3.79063
2710.0 3.78605
2711.0 3.73825
2712.0 3.72048
2713.0 3.77497
2714.0 3.77149
2715.0 3.76596
2716.0 3.76071
2717.0 3.75283
2718.0 3.75152
2719.0 3.74350
2720.0 3.74055
2721.0 3.73059
2722.0 3.72409
2723.0 3.73299
2724.0 3.72878
2725.0 3.71483
2726.0 3.71388
2727.0 3.64899
2728.0 3.70918
2729.0 3.70473
